Typical Measured Spectrum of Semrock FF01-590/36 Optical Filter	
For wavelengths between 320 and 1120 nm, values near or below 3e-7 (Optical Density 6.5) are measurement noise limited.
For wavelengths < 320 nm and > 1120 nm, values near or below 3e-6 (Optical Density 5.5) are measurement noise limited. 
Data format:  Wavelength (nm) <tab> Transmission (0 to 1)

290.0	1.9562e-07
290.2	1.9122e-07
290.4	1.8692e-07
290.6	1.8271e-07
290.8	1.786e-07
291.0	1.7458e-07
291.2	1.7065e-07
291.4	1.6681e-07
291.6	1.6306e-07
291.8	1.5939e-07
292.0	1.558e-07
292.2	1.523e-07
292.4	1.4887e-07
292.6	1.5407e-07
292.8	1.8216e-07
293.0	2.1537e-07
293.2	2.5464e-07
293.4	3.0107e-07
293.6	3.5596e-07
293.8	4.2087e-07
294.0	4.9761e-07
294.2	5.8834e-07
294.4	6.9561e-07
294.6	8.2244e-07
294.8	9.724e-07
295.0	1.1497e-06
295.2	1.1826e-06
295.4	1.2164e-06
295.6	1.2513e-06
295.8	1.1976e-06
296.0	1.0977e-06
296.2	1.0061e-06
296.4	9.2216e-07
296.6	8.4524e-07
296.8	7.7473e-07
297.0	7.101e-07
297.2	6.5086e-07
297.4	5.9657e-07
297.6	5.468e-07
297.8	5.0119e-07
298.0	4.5938e-07
298.2	4.2106e-07
298.4	3.8593e-07
298.6	3.5374e-07
298.8	3.2423e-07
299.0	2.9718e-07
299.2	2.7239e-07
299.4	2.4967e-07
299.6	2.2884e-07
299.8	2.0975e-07
300.0	1.9225e-07
300.2	1.7622e-07
300.4	1.6757e-07
300.6	1.7556e-07
300.8	1.8394e-07
301.0	1.9271e-07
301.2	2.0191e-07
301.4	2.1154e-07
301.6	2.2163e-07
301.8	2.322e-07
302.0	2.4328e-07
302.2	2.5489e-07
302.4	2.6705e-07
302.6	2.7979e-07
302.8	2.9314e-07
303.0	3.0712e-07
303.2	3.2178e-07
303.4	3.3713e-07
303.6	3.5321e-07
303.8	3.7006e-07
304.0	3.8772e-07
304.2	4.0621e-07
304.4	4.2559e-07
304.6	4.459e-07
304.8	4.6717e-07
305.0	4.8946e-07
305.2	4.2024e-07
305.4	3.608e-07
305.6	3.0977e-07
305.8	2.6596e-07
306.0	2.2835e-07
306.2	1.9605e-07
306.4	1.6832e-07
306.6	1.4452e-07
306.8	1.2408e-07
307.0	1.0947e-07
307.2	1.0936e-07
307.4	1.0926e-07
307.6	1.0915e-07
307.8	1.0904e-07
308.0	1.0893e-07
308.2	1.0882e-07
308.4	1.0871e-07
308.6	1.0861e-07
308.8	1.085e-07
309.0	1.0839e-07
309.2	1.0828e-07
309.4	1.0817e-07
309.6	1.0807e-07
309.8	1.0796e-07
310.0	1.0785e-07
310.2	1.0775e-07
310.4	1.0764e-07
310.6	1.0753e-07
310.8	1.0742e-07
311.0	1.0732e-07
311.2	1.0721e-07
311.4	1.071e-07
311.6	1.07e-07
311.8	1.1725e-07
312.0	1.3103e-07
312.2	1.4644e-07
312.4	1.6365e-07
312.6	1.8289e-07
312.8	2.0439e-07
313.0	2.2841e-07
313.2	2.5526e-07
313.4	2.8527e-07
313.6	3.188e-07
313.8	3.5627e-07
314.0	3.9815e-07
314.2	4.4496e-07
314.4	4.9726e-07
314.6	5.5571e-07
314.8	6.2103e-07
315.0	6.9404e-07
315.2	7.7562e-07
315.4	8.6679e-07
315.6	9.6868e-07
315.8	1.0825e-06
316.0	1.2098e-06
316.2	1.352e-06
316.4	1.3707e-06
316.6	1.253e-06
316.8	1.1454e-06
317.0	1.047e-06
317.2	9.5713e-07
317.4	8.7495e-07
317.6	7.9982e-07
317.8	7.3114e-07
318.0	6.6836e-07
318.2	6.1098e-07
318.4	5.5851e-07
318.6	5.1056e-07
318.8	4.6672e-07
319.0	4.2664e-07
319.2	3.9001e-07
319.4	3.5652e-07
319.6	3.2591e-07
319.8	2.9793e-07
320.0	2.7235e-07
320.2	2.4896e-07
320.4	2.2758e-07
320.6	2.0804e-07
320.8	1.9018e-07
321.0	1.7863e-07
321.2	1.945e-07
321.4	2.1179e-07
321.6	2.3061e-07
321.8	2.511e-07
322.0	2.7342e-07
322.2	2.9772e-07
322.4	3.2417e-07
322.6	3.5298e-07
322.8	3.8435e-07
323.0	4.1851e-07
323.2	4.557e-07
323.4	4.962e-07
323.6	5.4029e-07
323.8	5.8831e-07
324.0	6.4059e-07
324.2	6.9752e-07
324.4	7.5951e-07
324.6	8.2701e-07
324.8	9.005e-07
325.0	9.8053e-07
325.2	1.0677e-06
325.4	1.1626e-06
325.6	1.2659e-06
325.8	1.1716e-06
326.0	1.05e-06
326.2	9.4112e-07
326.4	8.4349e-07
326.6	7.5599e-07
326.8	6.7756e-07
327.0	6.0728e-07
327.2	5.4428e-07
327.4	4.8782e-07
327.6	4.3721e-07
327.8	3.9186e-07
328.0	3.5121e-07
328.2	3.1477e-07
328.4	2.8212e-07
328.6	2.5285e-07
328.8	2.2662e-07
329.0	2.0311e-07
329.2	1.8204e-07
329.4	1.6316e-07
329.6	1.4623e-07
329.8	1.3106e-07
330.0	1.1747e-07
330.2	1.0528e-07
330.4	1.0352e-07
330.6	1.1051e-07
330.8	1.1796e-07
331.0	1.2592e-07
331.2	1.3442e-07
331.4	1.4349e-07
331.6	1.5317e-07
331.8	1.6351e-07
332.0	1.7454e-07
332.2	1.8632e-07
332.4	1.9889e-07
332.6	2.1231e-07
332.8	2.2664e-07
333.0	2.4194e-07
333.2	2.5826e-07
333.4	2.7569e-07
333.6	2.9429e-07
333.8	3.1415e-07
334.0	3.3535e-07
334.2	3.5798e-07
334.4	3.8213e-07
334.6	4.0792e-07
334.8	4.3544e-07
335.0	4.527e-07
335.2	3.8772e-07
335.4	3.3206e-07
335.6	2.8439e-07
335.8	2.4357e-07
336.0	2.0861e-07
336.2	1.7866e-07
336.4	1.5301e-07
336.6	1.3105e-07
336.8	1.1224e-07
337.0	1.0e-07
337.2	1.0e-07
337.4	1.0e-07
337.6	1.0e-07
337.8	1.0e-07
338.0	1.0e-07
338.2	1.0e-07
338.4	1.0e-07
338.6	1.0e-07
338.8	1.0e-07
339.0	1.0e-07
339.2	1.0e-07
339.4	1.0e-07
339.6	1.0e-07
339.8	1.0e-07
340.0	1.0e-07
340.2	1.0e-07
340.4	1.0e-07
340.6	1.0e-07
340.8	1.0e-07
341.0	1.0e-07
341.2	1.0e-07
341.4	1.0e-07
341.6	1.0e-07
341.8	1.0e-07
342.0	1.0e-07
342.2	1.0e-07
342.4	1.0e-07
342.6	1.0e-07
342.8	1.0e-07
343.0	1.0e-07
343.2	1.0e-07
343.4	1.0e-07
343.6	1.0e-07
343.8	1.0e-07
344.0	1.0e-07
344.2	1.0e-07
344.4	1.0e-07
344.6	1.0e-07
344.8	1.0e-07
345.0	1.0e-07
345.2	1.0e-07
345.4	1.0e-07
345.6	1.0e-07
345.8	1.0e-07
346.0	1.0e-07
346.2	1.0e-07
346.4	1.0e-07
346.6	1.0e-07
346.8	1.0e-07
347.0	1.0e-07
347.2	1.0e-07
347.4	1.0e-07
347.6	1.0e-07
347.8	1.0e-07
348.0	1.0e-07
348.2	1.0e-07
348.4	1.0e-07
348.6	1.0e-07
348.8	1.0e-07
349.0	1.0e-07
349.2	1.0e-07
349.4	1.0e-07
349.6	1.0e-07
349.8	1.0e-07
350.0	1.0e-07
350.2	1.0e-07
350.4	1.0e-07
350.6	1.0e-07
350.8	1.0e-07
351.0	1.0e-07
351.2	1.0e-07
351.4	1.0e-07
351.6	1.0e-07
351.8	1.0e-07
352.0	1.0e-07
352.2	1.0e-07
352.4	1.0e-07
352.6	1.0e-07
352.8	1.0e-07
353.0	1.0e-07
353.2	1.0e-07
353.4	1.0e-07
353.6	1.0e-07
353.8	1.0e-07
354.0	1.0e-07
354.2	1.0e-07
354.4	1.0e-07
354.6	1.0e-07
354.8	1.0e-07
355.0	1.0e-07
355.2	1.0e-07
355.4	1.0e-07
355.6	1.0e-07
355.8	1.0e-07
356.0	1.0e-07
356.2	1.0e-07
356.4	1.0e-07
356.6	1.0e-07
356.8	1.0e-07
357.0	1.0e-07
357.2	1.0e-07
357.4	1.0e-07
357.6	1.0e-07
357.8	1.0e-07
358.0	1.0e-07
358.2	1.0e-07
358.4	1.0e-07
358.6	1.0e-07
358.8	1.0e-07
359.0	1.0e-07
359.2	1.0e-07
359.4	1.0e-07
359.6	1.0e-07
359.8	1.0e-07
360.0	1.0e-07
360.2	1.0e-07
360.4	1.0225e-07
360.6	1.0504e-07
360.8	1.0791e-07
361.0	1.1085e-07
361.2	1.1388e-07
361.4	1.1699e-07
361.6	1.2019e-07
361.8	1.2347e-07
362.0	1.2684e-07
362.2	1.303e-07
362.4	1.3386e-07
362.6	1.3752e-07
362.8	1.4127e-07
363.0	1.4513e-07
363.2	1.4909e-07
363.4	1.5316e-07
363.6	1.5735e-07
363.8	1.6164e-07
364.0	1.6606e-07
364.2	1.7059e-07
364.4	1.7525e-07
364.6	1.8003e-07
364.8	1.8495e-07
365.0	1.9363e-07
365.2	2.1259e-07
365.4	2.3341e-07
365.6	2.5626e-07
365.8	2.8135e-07
366.0	3.089e-07
366.2	3.3914e-07
366.4	3.7234e-07
366.6	4.088e-07
366.8	4.4882e-07
367.0	4.639e-07
367.2	4.4038e-07
367.4	4.1806e-07
367.6	3.9686e-07
367.8	3.7674e-07
368.0	3.5764e-07
368.2	3.3951e-07
368.4	3.2229e-07
368.6	3.0595e-07
368.8	2.9044e-07
369.0	2.7572e-07
369.2	2.6174e-07
369.4	2.4847e-07
369.6	2.3587e-07
369.8	2.2391e-07
370.0	2.1256e-07
370.2	2.0178e-07
370.4	1.9155e-07
370.6	1.8184e-07
370.8	1.7543e-07
371.0	1.6999e-07
371.2	1.6472e-07
371.4	1.5961e-07
371.6	1.5466e-07
371.8	1.4987e-07
372.0	1.4522e-07
372.2	1.4072e-07
372.4	1.3635e-07
372.6	1.3213e-07
372.8	1.2803e-07
373.0	1.2406e-07
373.2	1.2021e-07
373.4	1.1649e-07
373.6	1.1287e-07
373.8	1.0937e-07
374.0	1.0598e-07
374.2	1.027e-07
374.4	1.0193e-07
374.6	1.1531e-07
374.8	1.3044e-07
375.0	1.4755e-07
375.2	1.6692e-07
375.4	1.8882e-07
375.6	2.136e-07
375.8	2.4163e-07
376.0	2.7334e-07
376.2	3.0921e-07
376.4	3.4979e-07
376.6	3.9569e-07
376.8	4.4761e-07
377.0	5.0635e-07
377.2	5.728e-07
377.4	6.4797e-07
377.6	7.33e-07
377.8	8.2919e-07
378.0	9.38e-07
378.2	9.2878e-07
378.4	8.2101e-07
378.6	7.2574e-07
378.8	6.4153e-07
379.0	5.6709e-07
379.2	5.0129e-07
379.4	4.4312e-07
379.6	3.9171e-07
379.8	3.4625e-07
380.0	3.0608e-07
380.2	2.7056e-07
380.4	2.3917e-07
380.6	2.1142e-07
380.8	1.8688e-07
381.0	1.652e-07
381.2	1.4603e-07
381.4	1.2909e-07
381.6	1.1411e-07
381.8	1.0087e-07
382.0	1.0436e-07
382.2	1.0927e-07
382.4	1.1441e-07
382.6	1.1978e-07
382.8	1.2542e-07
383.0	1.3131e-07
383.2	1.3748e-07
383.4	1.4395e-07
383.6	1.5071e-07
383.8	1.578e-07
384.0	1.6521e-07
384.2	1.7298e-07
384.4	1.8111e-07
384.6	1.8963e-07
384.8	1.9854e-07
385.0	2.0787e-07
385.2	2.1764e-07
385.4	2.2788e-07
385.6	2.352e-07
385.8	2.3565e-07
386.0	2.361e-07
386.2	2.3656e-07
386.4	2.3701e-07
386.6	2.3747e-07
386.8	2.3792e-07
387.0	2.3838e-07
387.2	2.3884e-07
387.4	2.393e-07
387.6	2.3976e-07
387.8	2.4022e-07
388.0	2.4068e-07
388.2	2.4114e-07
388.4	2.416e-07
388.6	2.4207e-07
388.8	2.4253e-07
389.0	2.43e-07
389.2	2.4347e-07
389.4	2.3233e-07
389.6	2.1774e-07
389.8	2.0407e-07
390.0	1.9126e-07
390.2	1.7925e-07
390.4	1.68e-07
390.6	1.5745e-07
390.8	1.4756e-07
391.0	1.383e-07
391.2	1.2961e-07
391.4	1.2147e-07
391.6	1.1385e-07
391.8	1.067e-07
392.0	1.0e-07
392.2	1.0e-07
392.4	1.0e-07
392.6	1.0e-07
392.8	1.0e-07
393.0	1.0e-07
393.2	1.0e-07
393.4	1.0e-07
393.6	1.0e-07
393.8	1.0e-07
394.0	1.0e-07
394.2	1.0e-07
394.4	1.0e-07
394.6	1.0e-07
394.8	1.0e-07
395.0	1.0e-07
395.2	1.0e-07
395.4	1.0e-07
395.6	1.0e-07
395.8	1.0e-07
396.0	1.0e-07
396.2	1.0e-07
396.4	1.0e-07
396.6	1.0e-07
396.8	1.0e-07
397.0	1.0e-07
397.2	1.0e-07
397.4	1.0e-07
397.6	1.0e-07
397.8	1.0e-07
398.0	1.0e-07
398.2	1.0e-07
398.4	1.0e-07
398.6	1.0e-07
398.8	1.0e-07
399.0	1.0e-07
399.2	1.0e-07
399.4	1.0e-07
399.6	1.0e-07
399.8	1.0e-07
400.0	1.0e-07
400.2	1.0e-07
400.4	1.0e-07
400.6	1.0e-07
400.8	1.0e-07
401.0	1.0e-07
401.2	1.0e-07
401.4	1.0e-07
401.6	1.0e-07
401.8	1.0e-07
402.0	1.0e-07
402.2	1.0e-07
402.4	1.0e-07
402.6	1.0e-07
402.8	1.0e-07
403.0	1.0e-07
403.2	1.0e-07
403.4	1.0e-07
403.6	1.0e-07
403.8	1.0e-07
404.0	1.0e-07
404.2	1.0e-07
404.4	1.0e-07
404.6	1.0e-07
404.8	1.0e-07
405.0	1.0e-07
405.2	1.0e-07
405.4	1.0e-07
405.6	1.0e-07
405.8	1.0e-07
406.0	1.0e-07
406.2	1.0e-07
406.4	1.0e-07
406.6	1.0e-07
406.8	1.0e-07
407.0	1.0e-07
407.2	1.0e-07
407.4	1.0e-07
407.6	1.0e-07
407.8	1.0e-07
408.0	1.0e-07
408.2	1.0e-07
408.4	1.0e-07
408.6	1.0e-07
408.8	1.0e-07
409.0	1.0e-07
409.2	1.0e-07
409.4	1.0e-07
409.6	1.0e-07
409.8	1.0e-07
410.0	1.0e-07
410.2	1.0e-07
410.4	1.0e-07
410.6	1.0e-07
410.8	1.0e-07
411.0	1.0e-07
411.2	1.0e-07
411.4	1.0e-07
411.6	1.0e-07
411.8	1.0e-07
412.0	1.0e-07
412.2	1.0e-07
412.4	1.0e-07
412.6	1.0e-07
412.8	1.0e-07
413.0	1.0e-07
413.2	1.0e-07
413.4	1.0e-07
413.6	1.0e-07
413.8	1.0e-07
414.0	1.0e-07
414.2	1.0e-07
414.4	1.0e-07
414.6	1.0e-07
414.8	1.0e-07
415.0	1.0e-07
415.2	1.0e-07
415.4	1.0e-07
415.6	1.0e-07
415.8	1.0e-07
416.0	1.0e-07
416.2	1.0e-07
416.4	1.0e-07
416.6	1.0e-07
416.8	1.0e-07
417.0	1.0e-07
417.2	1.0e-07
417.4	1.0e-07
417.6	1.0e-07
417.8	1.0e-07
418.0	1.0e-07
418.2	1.0e-07
418.4	1.0e-07
418.6	1.0e-07
418.8	1.0e-07
419.0	1.0e-07
419.2	1.0e-07
419.4	1.0e-07
419.6	1.0e-07
419.8	1.0e-07
420.0	1.0e-07
420.2	1.0e-07
420.4	1.0e-07
420.6	1.0e-07
420.8	1.0e-07
421.0	1.0e-07
421.2	1.0e-07
421.4	1.0e-07
421.6	1.0e-07
421.8	1.0e-07
422.0	1.0e-07
422.2	1.0e-07
422.4	1.0e-07
422.6	1.0e-07
422.8	1.0e-07
423.0	1.0e-07
423.2	1.0e-07
423.4	1.0e-07
423.6	1.0e-07
423.8	1.0e-07
424.0	1.0e-07
424.2	1.0e-07
424.4	1.0e-07
424.6	1.0e-07
424.8	1.0e-07
425.0	1.0e-07
425.2	1.0e-07
425.4	1.0e-07
425.6	1.0e-07
425.8	1.0e-07
426.0	1.0e-07
426.2	1.0e-07
426.4	1.0e-07
426.6	1.0e-07
426.8	1.0084e-07
427.0	1.0181e-07
427.2	1.0278e-07
427.4	1.0376e-07
427.6	1.0476e-07
427.8	1.0576e-07
428.0	1.0677e-07
428.2	1.0779e-07
428.4	1.0882e-07
428.6	1.0986e-07
428.8	1.1092e-07
429.0	1.1198e-07
429.2	1.1305e-07
429.4	1.1413e-07
429.6	1.1522e-07
429.8	1.1632e-07
430.0	1.1744e-07
430.2	1.1784e-07
430.4	1.1678e-07
430.6	1.1573e-07
430.8	1.147e-07
431.0	1.1367e-07
431.2	1.1265e-07
431.4	1.1164e-07
431.6	1.1064e-07
431.8	1.0965e-07
432.0	1.0866e-07
432.2	1.0769e-07
432.4	1.0672e-07
432.6	1.0577e-07
432.8	1.0482e-07
433.0	1.0388e-07
433.2	1.0295e-07
433.4	1.0202e-07
433.6	1.0111e-07
433.8	1.002e-07
434.0	1.0e-07
434.2	1.0e-07
434.4	1.0e-07
434.6	1.0e-07
434.8	1.0e-07
435.0	1.0e-07
435.2	1.0e-07
435.4	1.0e-07
435.6	1.0e-07
435.8	1.0e-07
436.0	1.0e-07
436.2	1.0e-07
436.4	1.0e-07
436.6	1.0e-07
436.8	1.0e-07
437.0	1.0e-07
437.2	1.0e-07
437.4	1.0e-07
437.6	1.0e-07
437.8	1.0e-07
438.0	1.0e-07
438.2	1.0e-07
438.4	1.0e-07
438.6	1.0e-07
438.8	1.0e-07
439.0	1.0e-07
439.2	1.0e-07
439.4	1.0e-07
439.6	1.0e-07
439.8	1.0e-07
440.0	1.0e-07
440.2	1.0e-07
440.4	1.0e-07
440.6	1.0e-07
440.8	1.0e-07
441.0	1.0e-07
441.2	1.0e-07
441.4	1.0e-07
441.6	1.0e-07
441.8	1.0e-07
442.0	1.0e-07
442.2	1.0e-07
442.4	1.0e-07
442.6	1.0e-07
442.8	1.0e-07
443.0	1.0e-07
443.2	1.0e-07
443.4	1.0e-07
443.6	1.0e-07
443.8	1.0e-07
444.0	1.0e-07
444.2	1.0e-07
444.4	1.0e-07
444.6	1.0e-07
444.8	1.0e-07
445.0	1.0e-07
445.2	1.0e-07
445.4	1.0e-07
445.6	1.0e-07
445.8	1.0e-07
446.0	1.0e-07
446.2	1.0e-07
446.4	1.0e-07
446.6	1.0e-07
446.8	1.0e-07
447.0	1.0e-07
447.2	1.0e-07
447.4	1.0e-07
447.6	1.0e-07
447.8	1.0e-07
448.0	1.0e-07
448.2	1.0e-07
448.4	1.0e-07
448.6	1.0e-07
448.8	1.0e-07
449.0	1.0e-07
449.2	1.0e-07
449.4	1.0e-07
449.6	1.0e-07
449.8	1.0e-07
450.0	1.0e-07
450.2	1.0e-07
450.4	1.0e-07
450.6	1.0e-07
450.8	1.0e-07
451.0	1.0e-07
451.2	1.0e-07
451.4	1.0e-07
451.6	1.0e-07
451.8	1.0e-07
452.0	1.0e-07
452.2	1.0e-07
452.4	1.0e-07
452.6	1.0e-07
452.8	1.0e-07
453.0	1.0e-07
453.2	1.0e-07
453.4	1.0e-07
453.6	1.0e-07
453.8	1.0e-07
454.0	1.0e-07
454.2	1.0e-07
454.4	1.0e-07
454.6	1.0e-07
454.8	1.0e-07
455.0	1.0e-07
455.2	1.0e-07
455.4	1.0e-07
455.6	1.0e-07
455.8	1.0e-07
456.0	1.0e-07
456.2	1.0e-07
456.4	1.0e-07
456.6	1.0e-07
456.8	1.0e-07
457.0	1.0e-07
457.2	1.0e-07
457.4	1.0e-07
457.6	1.0e-07
457.8	1.0e-07
458.0	1.0e-07
458.2	1.0e-07
458.4	1.0e-07
458.6	1.0e-07
458.8	1.0e-07
459.0	1.0e-07
459.2	1.0e-07
459.4	1.0e-07
459.6	1.0e-07
459.8	1.0e-07
460.0	1.0e-07
460.2	1.0e-07
460.4	1.0e-07
460.6	1.0e-07
460.8	1.0e-07
461.0	1.0e-07
461.2	1.0e-07
461.4	1.0e-07
461.6	1.0e-07
461.8	1.0e-07
462.0	1.0e-07
462.2	1.0e-07
462.4	1.0e-07
462.6	1.0e-07
462.8	1.0e-07
463.0	1.0e-07
463.2	1.0e-07
463.4	1.0e-07
463.6	1.0289e-07
463.8	1.0733e-07
464.0	1.1196e-07
464.2	1.1679e-07
464.4	1.2183e-07
464.6	1.2709e-07
464.8	1.3257e-07
465.0	1.3829e-07
465.2	1.4425e-07
465.4	1.5048e-07
465.6	1.5697e-07
465.8	1.6374e-07
466.0	1.7081e-07
466.2	1.7817e-07
466.4	1.8586e-07
466.6	1.9388e-07
466.8	2.0224e-07
467.0	2.1097e-07
467.2	2.2007e-07
467.4	2.2957e-07
467.6	2.3962e-07
467.8	2.5143e-07
468.0	2.6383e-07
468.2	2.7684e-07
468.4	2.9049e-07
468.6	3.0482e-07
468.8	3.1985e-07
469.0	3.3562e-07
469.2	3.5217e-07
469.4	3.6953e-07
469.6	3.8775e-07
469.8	4.0687e-07
470.0	4.2693e-07
470.2	4.4799e-07
470.4	4.7008e-07
470.6	4.886e-07
470.8	4.95e-07
471.0	5.0149e-07
471.2	5.0806e-07
471.4	5.1471e-07
471.6	5.2145e-07
471.8	5.2828e-07
472.0	5.352e-07
472.2	5.4222e-07
472.4	5.4932e-07
472.6	5.5651e-07
472.8	5.638e-07
473.0	5.7119e-07
473.2	5.7867e-07
473.4	5.8625e-07
473.6	5.9393e-07
473.8	6.0171e-07
474.0	6.096e-07
474.2	6.1758e-07
474.4	6.218e-07
474.6	6.2489e-07
474.8	6.2799e-07
475.0	6.3111e-07
475.2	6.3424e-07
475.4	6.3739e-07
475.6	6.4055e-07
475.8	6.4373e-07
476.0	6.4693e-07
476.2	6.5014e-07
476.4	6.5337e-07
476.6	6.5661e-07
476.8	6.5987e-07
477.0	6.6314e-07
477.2	6.6644e-07
477.4	6.6975e-07
477.6	6.7307e-07
477.8	6.7641e-07
478.0	6.8055e-07
478.2	6.8675e-07
478.4	6.93e-07
478.6	6.9931e-07
478.8	7.0568e-07
479.0	7.1211e-07
479.2	7.1859e-07
479.4	7.2514e-07
479.6	7.3174e-07
479.8	7.384e-07
480.0	7.4513e-07
480.2	7.5191e-07
480.4	7.5876e-07
480.6	7.6567e-07
480.8	7.7264e-07
481.0	7.7968e-07
481.2	7.8678e-07
481.4	7.9394e-07
481.6	8.0117e-07
481.8	8.0698e-07
482.0	8.1244e-07
482.2	8.1793e-07
482.4	8.2347e-07
482.6	8.2904e-07
482.8	8.3465e-07
483.0	8.4029e-07
483.2	8.4598e-07
483.4	8.517e-07
483.6	8.5746e-07
483.8	8.6326e-07
484.0	8.691e-07
484.2	8.7498e-07
484.4	8.809e-07
484.6	8.8686e-07
484.8	8.9286e-07
485.0	8.989e-07
485.2	9.0498e-07
485.4	9.1196e-07
485.6	9.2077e-07
485.8	9.2967e-07
486.0	9.3865e-07
486.2	9.4772e-07
486.4	9.5688e-07
486.6	9.6613e-07
486.8	9.7546e-07
487.0	9.8489e-07
487.2	9.9441e-07
487.4	1.004e-06
487.6	1.0137e-06
487.8	1.0235e-06
488.0	1.0334e-06
488.2	1.0434e-06
488.4	1.0535e-06
488.6	1.0637e-06
488.8	1.0739e-06
489.0	1.0843e-06
489.2	1.0008e-06
489.4	9.1089e-07
489.6	8.2905e-07
489.8	7.5456e-07
490.0	6.8677e-07
490.2	6.2506e-07
490.4	5.689e-07
490.6	5.1779e-07
490.8	4.7127e-07
491.0	4.2892e-07
491.2	3.9039e-07
491.4	3.5531e-07
491.6	3.2339e-07
491.8	2.9433e-07
492.0	2.6789e-07
492.2	2.4382e-07
492.4	2.2191e-07
492.6	2.0197e-07
492.8	1.8383e-07
493.0	1.6731e-07
493.2	1.5228e-07
493.4	1.386e-07
493.6	1.3438e-07
493.8	1.344e-07
494.0	1.3443e-07
494.2	1.3446e-07
494.4	1.3449e-07
494.6	1.3452e-07
494.8	1.3455e-07
495.0	1.3458e-07
495.2	1.3461e-07
495.4	1.3464e-07
495.6	1.3467e-07
495.8	1.3469e-07
496.0	1.3472e-07
496.2	1.3475e-07
496.4	1.3478e-07
496.6	1.3481e-07
496.8	1.3484e-07
497.0	1.3488e-07
497.2	1.3538e-07
497.4	1.3589e-07
497.6	1.364e-07
497.8	1.3691e-07
498.0	1.3743e-07
498.2	1.3794e-07
498.4	1.3846e-07
498.6	1.3898e-07
498.8	1.395e-07
499.0	1.4002e-07
499.2	1.4055e-07
499.4	1.4108e-07
499.6	1.416e-07
499.8	1.4214e-07
500.0	1.4267e-07
500.2	1.432e-07
500.4	1.4374e-07
500.6	1.4428e-07
500.8	1.4482e-07
501.0	1.4537e-07
501.2	1.4591e-07
501.4	1.4646e-07
501.6	1.4701e-07
501.8	1.4756e-07
502.0	1.4811e-07
502.2	1.4838e-07
502.4	1.4865e-07
502.6	1.4892e-07
502.8	1.4919e-07
503.0	1.4946e-07
503.2	1.4973e-07
503.4	1.5e-07
503.6	1.5027e-07
503.8	1.5054e-07
504.0	1.5082e-07
504.2	1.5109e-07
504.4	1.5136e-07
504.6	1.5164e-07
504.8	1.5191e-07
505.0	1.5219e-07
505.2	1.5246e-07
505.4	1.5274e-07
505.6	1.5302e-07
505.8	1.533e-07
506.0	1.5357e-07
506.2	1.5385e-07
506.4	1.5413e-07
506.6	1.5441e-07
506.8	1.5469e-07
507.0	1.5497e-07
507.2	1.5485e-07
507.4	1.5474e-07
507.6	1.5462e-07
507.8	1.5451e-07
508.0	1.5439e-07
508.2	1.5428e-07
508.4	1.5416e-07
508.6	1.5405e-07
508.8	1.5394e-07
509.0	1.5382e-07
509.2	1.5371e-07
509.4	1.5359e-07
509.6	1.5348e-07
509.8	1.5337e-07
510.0	1.5325e-07
510.2	1.5314e-07
510.4	1.5303e-07
510.6	1.5291e-07
510.8	1.528e-07
511.0	1.5269e-07
511.2	1.5258e-07
511.4	1.5246e-07
511.6	1.5235e-07
511.8	1.5224e-07
512.0	1.521e-07
512.2	1.5191e-07
512.4	1.5172e-07
512.6	1.5153e-07
512.8	1.5134e-07
513.0	1.5115e-07
513.2	1.5096e-07
513.4	1.5076e-07
513.6	1.5057e-07
513.8	1.5039e-07
514.0	1.502e-07
514.2	1.5001e-07
514.4	1.4982e-07
514.6	1.4963e-07
514.8	1.4944e-07
515.0	1.4925e-07
515.2	1.4906e-07
515.4	1.4887e-07
515.6	1.4869e-07
515.8	1.485e-07
516.0	1.4831e-07
516.2	1.4813e-07
516.4	1.4794e-07
516.6	1.4775e-07
516.8	1.4757e-07
517.0	1.4691e-07
517.2	1.4587e-07
517.4	1.4484e-07
517.6	1.4381e-07
517.8	1.4279e-07
518.0	1.4178e-07
518.2	1.4077e-07
518.4	1.3978e-07
518.6	1.3878e-07
518.8	1.378e-07
519.0	1.3682e-07
519.2	1.3585e-07
519.4	1.3489e-07
519.6	1.3393e-07
519.8	1.3298e-07
520.0	1.3204e-07
520.2	1.311e-07
520.4	1.3017e-07
520.6	1.2925e-07
520.8	1.2833e-07
521.0	1.2742e-07
521.2	1.2652e-07
521.4	1.2562e-07
521.6	1.2473e-07
521.8	1.2387e-07
522.0	1.2343e-07
522.2	1.2299e-07
522.4	1.2256e-07
522.6	1.2213e-07
522.8	1.217e-07
523.0	1.2127e-07
523.2	1.2084e-07
523.4	1.2041e-07
523.6	1.1999e-07
523.8	1.1957e-07
524.0	1.1914e-07
524.2	1.1872e-07
524.4	1.183e-07
524.6	1.1789e-07
524.8	1.1747e-07
525.0	1.1706e-07
525.2	1.1664e-07
525.4	1.1623e-07
525.6	1.1582e-07
525.8	1.1541e-07
526.0	1.1501e-07
526.2	1.146e-07
526.4	1.142e-07
526.6	1.1379e-07
526.8	1.1378e-07
527.0	1.1408e-07
527.2	1.1438e-07
527.4	1.1468e-07
527.6	1.1498e-07
527.8	1.1528e-07
528.0	1.1559e-07
528.2	1.1589e-07
528.4	1.162e-07
528.6	1.165e-07
528.8	1.1681e-07
529.0	1.1712e-07
529.2	1.1743e-07
529.4	1.1774e-07
529.6	1.1805e-07
529.8	1.1836e-07
530.0	1.1867e-07
530.2	1.1898e-07
530.4	1.193e-07
530.6	1.1961e-07
530.8	1.1993e-07
531.0	1.2024e-07
531.2	1.2056e-07
531.4	1.2088e-07
531.6	1.2118e-07
531.8	1.2121e-07
532.0	1.2123e-07
532.2	1.2126e-07
532.4	1.2129e-07
532.6	1.2131e-07
532.8	1.2134e-07
533.0	1.2137e-07
533.2	1.2139e-07
533.4	1.2142e-07
533.6	1.2145e-07
533.8	1.2148e-07
534.0	1.215e-07
534.2	1.2153e-07
534.4	1.2156e-07
534.6	1.2158e-07
534.8	1.2161e-07
535.0	1.2164e-07
535.2	1.2166e-07
535.4	1.2169e-07
535.6	1.2172e-07
535.8	1.2174e-07
536.0	1.2177e-07
536.2	1.218e-07
536.4	1.2183e-07
536.6	1.2196e-07
536.8	1.2217e-07
537.0	1.2239e-07
537.2	1.2261e-07
